freq,psd_x,psd_y,psd_z,psd_xyz
0.0,1.147e+03,1.055e+02,8.318e+01,1.335e+03
1.5,6.533e+02,9.501e+01,6.970e+01,8.180e+02
3.0,2.795e+01,4.441e+01,3.264e+01,1.050e+02
4.6,2.886e+02,3.803e+01,3.046e+01,3.571e+02
6.1,1.147e+03,3.914e+01,3.306e+01,1.220e+03
7.6,1.890e+03,4.723e+01,3.407e+01,1.971e+03
9.1,2.487e+03,5.058e+01,3.011e+01,2.567e+03
10.6,3.462e+03,4.620e+01,2.951e+01,3.538e+03
12.1,4.674e+03,5.074e+01,3.223e+01,4.757e+03
13.7,6.118e+03,6.751e+01,3.470e+01,6.221e+03
15.2,7.685e+03,6.811e+01,3.336e+01,7.786e+03
16.7,9.557e+03,5.159e+01,3.118e+01,9.640e+03
18.2,1.192e+04,4.945e+01,3.264e+01,1.200e+04
19.7,1.485e+04,5.376e+01,3.435e+01,1.494e+04
21.2,1.820e+04,5.915e+01,3.868e+01,1.830e+04
22.8,2.080e+04,6.458e+01,4.362e+01,2.091e+04
24.3,2.142e+04,8.364e+01,4.962e+01,2.156e+04
25.8,2.425e+04,1.049e+02,5.212e+01,2.441e+04
27.3,2.894e+04,1.115e+02,5.606e+01,2.911e+04
28.8,3.443e+04,1.507e+02,6.879e+01,3.465e+04
30.3,4.057e+04,2.148e+02,6.522e+01,4.085e+04
31.9,4.755e+04,2.517e+02,5.640e+01,4.786e+04
33.4,5.568e+04,2.523e+02,5.950e+01,5.599e+04
34.9,6.542e+04,3.014e+02,8.021e+01,6.580e+04
36.4,7.801e+04,3.880e+02,1.310e+02,7.852e+04
37.9,9.352e+04,4.504e+02,1.989e+02,9.417e+04
39.5,1.121e+05,5.462e+02,2.740e+02,1.129e+05
41.0,1.368e+05,6.324e+02,5.072e+02,1.379e+05
42.5,1.673e+05,7.922e+02,1.382e+03,1.695e+05
44.0,1.838e+05,1.808e+03,2.607e+03,1.882e+05
45.5,1.961e+05,3.759e+03,3.409e+03,2.033e+05
47.0,2.265e+05,6.414e+03,3.854e+03,2.368e+05
48.6,2.762e+05,1.085e+04,4.263e+03,2.913e+05
50.1,3.576e+05,1.981e+04,4.958e+03,3.824e+05
51.6,4.591e+05,3.573e+04,6.419e+03,5.013e+05
53.1,5.255e+05,5.423e+04,8.319e+03,5.881e+05
54.6,5.681e+05,8.090e+04,1.144e+04,6.604e+05
56.1,7.130e+05,1.273e+05,1.824e+04,8.586e+05
57.7,1.035e+06,1.210e+05,1.889e+04,1.174e+06
59.2,1.321e+06,7.755e+04,1.288e+04,1.411e+06
60.7,1.503e+06,4.940e+04,6.881e+03,1.559e+06
62.2,1.780e+06,3.715e+04,3.054e+03,1.820e+06
63.7,2.241e+06,3.311e+04,1.357e+03,2.275e+06
65.2,2.904e+06,4.073e+04,1.341e+03,2.946e+06
66.8,3.703e+06,5.940e+04,5.497e+03,3.768e+06
68.3,4.236e+06,8.403e+04,2.048e+04,4.340e+06
69.8,4.339e+06,1.131e+05,4.207e+04,4.494e+06
71.3,4.133e+06,1.404e+05,5.561e+04,4.329e+06
72.8,3.937e+06,1.601e+05,6.471e+04,4.161e+06
74.4,3.695e+06,1.666e+05,6.594e+04,3.928e+06
75.9,3.390e+06,1.607e+05,7.002e+04,3.620e+06
77.4,3.025e+06,1.475e+05,8.504e+04,3.257e+06
78.9,2.722e+06,1.416e+05,1.039e+05,2.968e+06
80.4,2.464e+06,1.342e+05,1.275e+05,2.725e+06
81.9,2.118e+06,1.175e+05,1.804e+05,2.416e+06
83.5,1.692e+06,8.930e+04,2.646e+05,2.046e+06
85.0,1.383e+06,6.783e+04,3.369e+05,1.788e+06
86.5,1.312e+06,7.417e+04,3.895e+05,1.775e+06
88.0,1.357e+06,9.997e+04,4.199e+05,1.877e+06
89.5,1.385e+06,1.163e+05,4.303e+05,1.931e+06
91.0,1.356e+06,1.220e+05,4.190e+05,1.897e+06
92.6,1.281e+06,1.172e+05,3.976e+05,1.796e+06
94.1,1.245e+06,1.142e+05,3.767e+05,1.736e+06
95.6,1.266e+06,1.156e+05,3.631e+05,1.745e+06
97.1,1.278e+06,1.182e+05,3.235e+05,1.720e+06
98.6,1.210e+06,1.147e+05,2.553e+05,1.580e+06
100.1,1.186e+06,1.147e+05,2.025e+05,1.503e+06
101.7,1.159e+06,1.166e+05,1.715e+05,1.447e+06
103.2,1.139e+06,1.229e+05,1.551e+05,1.417e+06
104.7,1.118e+06,1.333e+05,1.460e+05,1.397e+06
106.2,1.075e+06,1.427e+05,1.408e+05,1.359e+06
107.7,1.022e+06,1.504e+05,1.411e+05,1.314e+06
109.3,9.367e+05,1.536e+05,1.477e+05,1.238e+06
110.8,8.410e+05,1.560e+05,1.503e+05,1.147e+06
112.3,7.274e+05,1.517e+05,1.443e+05,1.023e+06
113.8,6.235e+05,1.493e+05,1.402e+05,9.130e+05
115.3,5.340e+05,1.549e+05,1.418e+05,8.306e+05
116.8,4.525e+05,1.704e+05,1.439e+05,7.668e+05
118.4,3.864e+05,1.994e+05,1.427e+05,7.286e+05
119.9,3.219e+05,2.325e+05,1.326e+05,6.869e+05
121.4,2.682e+05,2.583e+05,1.226e+05,6.492e+05
122.9,2.196e+05,2.684e+05,1.190e+05,6.069e+05
124.4,1.787e+05,2.675e+05,1.180e+05,5.642e+05
125.9,1.504e+05,2.620e+05,1.086e+05,5.211e+05
127.5,1.332e+05,2.505e+05,8.867e+04,4.723e+05
129.0,1.154e+05,1.907e+05,9.397e+04,4.001e+05
130.5,9.908e+04,1.419e+05,1.342e+05,3.753e+05
132.0,7.908e+04,1.116e+05,1.308e+05,3.215e+05
133.5,3.965e+04,4.294e+04,4.626e+04,1.288e+05
135.0,2.478e+04,1.153e+04,6.266e+03,4.258e+04
136.6,2.660e+04,1.167e+04,5.179e+03,4.344e+04
138.1,2.609e+04,1.066e+04,5.229e+03,4.198e+04
139.6,2.257e+04,7.659e+03,6.131e+03,3.636e+04
141.1,1.810e+04,5.722e+03,6.424e+03,3.024e+04
142.6,1.500e+04,5.073e+03,5.891e+03,2.597e+04
144.2,1.232e+04,4.296e+03,6.531e+03,2.315e+04
145.7,9.043e+03,3.389e+03,7.760e+03,2.019e+04
147.2,6.950e+03,2.645e+03,9.321e+03,1.892e+04
148.7,5.885e+03,2.628e+03,1.166e+04,2.017e+04
150.2,5.295e+03,2.655e+03,1.470e+04,2.265e+04
151.7,4.606e+03,3.090e+03,1.875e+04,2.644e+04
153.3,4.446e+03,3.715e+03,2.411e+04,3.227e+04
154.8,3.938e+03,3.900e+03,2.640e+04,3.423e+04
156.3,2.898e+03,4.078e+03,2.621e+04,3.319e+04
157.8,2.570e+03,4.977e+03,2.761e+04,3.515e+04
159.3,2.538e+03,5.409e+03,3.109e+04,3.904e+04
160.8,2.543e+03,5.269e+03,3.431e+04,4.212e+04
162.4,2.693e+03,5.061e+03,3.681e+04,4.457e+04
163.9,3.117e+03,4.239e+03,3.846e+04,4.582e+04
165.4,4.084e+03,3.464e+03,4.249e+04,5.004e+04
166.9,5.482e+03,3.497e+03,5.258e+04,6.156e+04
168.4,6.560e+03,3.367e+03,6.147e+04,7.139e+04
169.9,7.429e+03,3.286e+03,7.741e+04,8.813e+04
171.5,7.869e+03,3.464e+03,9.958e+04,1.109e+05
173.0,7.562e+03,3.473e+03,1.202e+05,1.312e+05
174.5,7.063e+03,4.227e+03,1.402e+05,1.515e+05
176.0,8.012e+03,4.695e+03,1.632e+05,1.759e+05
177.5,1.026e+04,5.377e+03,1.876e+05,2.032e+05
179.1,1.350e+04,6.593e+03,2.155e+05,2.356e+05
180.6,1.769e+04,8.260e+03,2.260e+05,2.520e+05
182.1,2.133e+04,1.058e+04,2.169e+05,2.488e+05
183.6,2.375e+04,1.444e+04,2.121e+05,2.503e+05
185.1,2.546e+04,1.961e+04,2.110e+05,2.560e+05
186.6,2.707e+04,2.385e+04,2.106e+05,2.615e+05
188.2,2.834e+04,2.883e+04,2.222e+05,2.794e+05
189.7,2.934e+04,3.395e+04,2.366e+05,2.999e+05
191.2,3.048e+04,3.601e+04,2.473e+05,3.137e+05
192.7,3.342e+04,3.549e+04,2.585e+05,3.274e+05
194.2,3.908e+04,3.367e+04,2.710e+05,3.438e+05
195.7,4.130e+04,2.994e+04,2.673e+05,3.386e+05
197.3,4.045e+04,2.699e+04,2.555e+05,3.230e+05
198.8,3.918e+04,2.506e+04,2.421e+05,3.063e+05
